Measurement done: 2025-07-22 17:36:20.892561
Voltage SourceMeter: Keithley 2410
Pad Currentmeter:    Keithley 6487

Comments: 
Enter comments here

Number of points for median: 5
Hardware compliance: 5E-6
Software compliance used: False, value: 25μA
Set voltage (V), 	 Measured voltage (V), 	 σ_voltage (V), 	 Total current (A), 	 σ_total,  	 Pad current (A), 	 σ_pad
BEGIN
1.0,	0.9990616,	0.00033362186172689767,	1.113881e-09,	3.448594747188412e-10,	-1.044152e-11,	3.44228479582717e-12
2.0,	2.001804,	0.0004773298375611628,	7.876454e-10,	8.87375856505545e-10,	5.583811e-12,	2.041495686751038e-12
3.0,	3.004728,	0.0005229097286979888,	2.205826e-09,	5.742969860334605e-10,	8.513893e-12,	8.238881439662399e-13
4.0,	4.008292,	0.0005250902407313404,	1.934268e-09,	1.0100911505250232e-09,	5.719857e-12,	1.968541489746472e-12
4.5,	4.509343,	0.0005567953249192333,	1.605219e-09,	5.392068501525728e-10,	1.019212e-11,	1.6204249562671427e-12
5.0,	5.011214,	0.0005051502892621925,	2.733948e-10,	5.631031130347101e-10,	8.245488e-12,	2.4839846724085643e-12
5.5,	5.511945,	0.00039952446587854544,	1.304253e-09,	5.954029669551248e-10,	8.674112e-12,	3.3862847915691134e-12
6.0,	6.011823,	0.0005668602737301248,	1.561586e-09,	5.135986306677532e-10,	5.935602e-12,	1.3908007458541238e-12
7.0,	7.014026,	0.0004407555989919194,	1.625485e-09,	3.6983513872162566e-10,	1.150707e-11,	2.4617065136085242e-12
8.0,	8.015931,	0.000464837493846166,	2.235316e-09,	5.145579162768202e-10,	1.10051e-11,	6.040463559699735e-12
9.0,	9.00065,	0.0004254647109690002,	1.31494e-10,	6.371988466590719e-10,	1.236002e-11,	1.938691189115616e-12
10.0,	10.00339,	0.0005385260359814145,	1.102796e-09,	5.210849238088576e-10,	1.481988e-11,	2.8783678141601643e-12
15.0,	15.01377,	0.0003798726420214252,	3.060333e-09,	2.648235486056577e-08,	2.038453e-11,	2.1243771663569884e-12
20.0,	20.00793,	0.0005474148876835499,	2.233122e-09,	2.3770691737016026e-08,	3.754239e-11,	2.1399773119759225e-12
21.0,	21.00885,	0.0006130962999504238,	2.421221e-09,	4.5019689987947105e-10,	4.055669e-11,	2.7776574592072495e-12
22.0,	22.01075,	0.00011739556283095873,	3.90764e-09,	6.101285261081661e-10,	4.616279e-11,	3.82599895725782e-12
23.0,	23.01525,	0.0004098668476032572,	2.446823e-09,	4.882656953474035e-10,	4.867225e-11,	1.896265832013608e-12
24.0,	24.01612,	0.0001498416293836228,	4.246245e-09,	4.271450182439189e-10,	5.273453e-11,	3.3628186273745225e-12
25.0,	25.01883,	0.0001924305168338244,	2.987585e-09,	3.432184604739525e-10,	5.689618e-11,	2.709352728048317e-12
26.0,	26.02024,	0.0005814775604762229,	3.8105e-09,	5.283809759911286e-10,	6.209395e-11,	2.2315525559370226e-12
27.0,	27.00531,	0.00028883928837443717,	4.301498e-09,	4.278669106864171e-10,	7.051824e-11,	1.4391197308010044e-12
28.0,	28.0076,	0.0002475459729082107,	4.740481e-09,	4.174987934865216e-10,	7.430864e-11,	6.239157965692229e-13
29.0,	29.01069,	0.00043474957161417484,	4.44191e-09,	4.305616258603934e-10,	8.278171e-11,	2.6270493975257387e-12
30.0,	30.01136,	0.0003135447459417581,	4.766617e-09,	5.332203319971012e-10,	9.18205e-11,	3.0926750499056817e-12
30.5,	30.51272,	0.0002490930599320493,	5.874274e-09,	4.70285465655757e-10,	9.03199e-11,	1.992557392886781e-12
31.0,	31.0144,	0.0003648967972425973,	5.733331e-09,	4.969966980113073e-10,	9.888416e-11,	9.147140694586853e-13
31.5,	31.51463,	0.00037345036011489314,	6.069192e-09,	4.248970266418554e-10,	1.00554e-10,	1.9045810560481033e-12
32.0,	32.01495,	0.0005059718250491054,	7.441143e-09,	4.598415981561345e-10,	1.024352e-10,	3.1628767042879828e-12
32.5,	32.51696,	0.0006403343710716002,	7.795294e-09,	4.424180122624092e-10,	1.039116e-10,	1.0115457939514456e-12
33.0,	33.01809,	0.000371764084344288,	7.348252e-09,	2.1028993937701859e-10,	1.086035e-10,	2.45327311758521e-12
33.5,	33.5201,	0.00036638689453875043,	6.881273e-09,	4.3895851705828867e-10,	1.115982e-10,	1.377524338780267e-12
34.0,	34.02111,	0.0005988661177108269,	7.634578e-09,	3.8281286992371834e-10,	1.180587e-10,	1.900312507842307e-12
34.5,	34.52194,	0.00027211475749590357,	8.033063e-09,	4.622216883490876e-10,	1.23415e-10,	2.0708784914731853e-12
35.0,	35.01657,	0.00027185074136909754,	9.223445e-09,	5.112331535704851e-10,	1.275496e-10,	1.6624778525595034e-12
36.0,	36.00046,	0.0005698487369872597,	1.006306e-08,	4.597841767194744e-10,	1.364548e-10,	3.4102773725603665e-12
37.0,	37.00459,	0.00032381690319998517,	1.13223e-08,	5.191694613726163e-10,	1.451411e-10,	4.2663912748525335e-12
38.0,	38.00602,	0.000618162906057295,	1.329327e-08,	5.635614014576275e-10,	1.596651e-10,	3.3756422452968045e-12
39.0,	39.00874,	0.00035719484324870466,	1.473235e-08,	4.749940941094631e-10,	1.728078e-10,	2.9214989320915076e-12
40.0,	40.01016,	0.0003607330842921352,	1.84107e-08,	4.4411686027229047e-10,	1.881505e-10,	3.717187856283451e-12
41.0,	41.01307,	0.00023382959295863265,	1.999896e-08,	3.968888494251087e-10,	2.074867e-10,	1.161431425253644e-12
42.0,	42.01603,	0.0003817582753495633,	2.40547e-08,	4.847973016848903e-10,	2.236007e-10,	3.5906641800045832e-12
43.0,	43.01809,	0.0004373596898390478,	2.80651e-08,	4.753763405564494e-10,	2.396267e-10,	2.3266727654313215e-12
44.0,	44.02042,	0.0005947074159196412,	3.259405e-08,	3.7512557899768295e-10,	2.538192e-10,	2.7354655882600087e-12
45.0,	45.00313,	0.0007184603088098372,	4.00606e-08,	5.094856071607854e-10,	2.789459e-10,	3.863596127913055e-12
46.0,	46.00663,	0.0007319158345723659,	4.605995e-08,	4.871078534501036e-10,	2.990481e-10,	5.1516435773979385e-12
46.5,	46.50826,	0.000497863505366545,	5.04829e-08,	4.133957408742727e-10,	2.937487e-10,	3.929587518583266e-12
47.0,	47.00933,	0.0003851687696087034,	5.473994e-08,	2.6319984123469723e-10,	2.958515e-10,	2.059157191235785e-12
47.25,	47.26888,	0.0003928592224830321,	5.703678e-08,	3.2701403024790913e-10,	2.914607e-10,	2.6209608845906865e-12
47.5,	47.50975,	0.0005757112214835399,	5.861457e-08,	2.6388786035369947e-10,	2.848376e-10,	2.0218009038125916e-12
47.75,	47.76934,	0.00038366973476723783,	5.977124e-08,	1.4754708278836432e-10,	2.752694e-10,	1.733157049834517e-12
48.0,	48.01119,	0.0006852080884519875,	6.055226e-08,	1.881296496778054e-10,	2.751656e-10,	2.194257524110661e-12
48.25,	48.27121,	0.00028577761042965536,	6.084036e-08,	1.6056023290900846e-10,	2.697789e-10,	2.4635365356106797e-12
48.5,	48.51075,	0.0005048849650286689,	6.114497e-08,	1.7269591514178758e-10,	2.672082e-10,	2.260647903159367e-12
48.75,	48.77084,	0.0005453005063816756,	6.163721e-08,	1.6939004960927512e-10,	2.612709e-10,	1.6602861768863892e-12
49.0,	49.0128,	0.0007659227601959317,	6.14025e-08,	1.3960433169024095e-10,	2.582065e-10,	2.1851446237708298e-12
49.25,	49.27207,	0.00020393895248816416,	6.204181e-08,	1.5978512177678763e-10,	2.577971e-10,	2.797955164483951e-12
49.5,	49.51332,	0.00030723766966851256,	6.235405e-08,	1.2978286942425748e-10,	2.551483e-10,	1.133498238389047e-12
49.75,	49.75552,	0.0005873401192775619,	6.236243e-08,	1.9128202135423592e-10,	2.530691e-10,	3.263441750510052e-12
50.0,	50.01455,	0.00030644198864618127,	6.250996e-08,	1.4632009575294139e-10,	2.488726e-10,	2.5025867205472576e-12
51.0,	51.01731,	0.0005120906337523136,	6.308843e-08,	1.8959727291272238e-10,	2.744884e-10,	3.0369392592390914e-12
52.0,	52.01973,	0.00036194531859693943,	6.431134e-08,	1.839349816450282e-10,	2.907947e-10,	2.5667735366555035e-12
53.0,	53.02438,	0.0009068195799899614,	6.453921e-08,	8.822234490216741e-11,	3.181363e-10,	3.207457150731615e-12
54.0,	54.02525,	0.00039453496372872485,	6.559061e-08,	1.3628531873189163e-10,	3.363608e-10,	3.927919729714186e-12
55.0,	55.00702,	0.000618615776969449,	6.611403e-08,	9.414167091079693e-11,	3.614183e-10,	3.20685300528716e-12
60.0,	60.01787,	0.001332407752211758,	6.735588e-08,	4.951165109249211e-08,	6.41767e-10,	1.973098372852623e-11
61.0,	61.02232,	0.00033647825137415454,	6.956984e-08,	1.2278107381089036e-10,	6.277998e-10,	1.3323517496192157e-11
62.0,	62.02332,	0.0003141453466572118,	7.035591e-08,	1.7192198389575469e-10,	6.214647e-10,	1.2125065701987317e-11
63.0,	63.02598,	0.00031942127889312324,	7.09895e-08,	1.6900814742315338e-10,	6.196819e-10,	1.2072983352712737e-11
64.0,	64.00941,	0.00014005750436352348,	7.149873e-08,	9.682306235817143e-11,	6.165993e-10,	1.2628115550959065e-11
65.0,	65.01155,	0.0001417773162240827,	7.227737e-08,	1.0247316086590565e-10,	6.232574e-10,	1.1688989540383486e-11
66.0,	66.0166,	0.0007881662038881899,	7.295083e-08,	1.454734274914051e-10,	6.196036e-10,	1.0916335153300307e-11
67.0,	67.01625,	0.00026999539983985505,	7.343183e-08,	1.3597318499177265e-10,	6.229073e-10,	1.1796315407821345e-11
68.0,	68.01844,	0.00040980114310509413,	7.454228e-08,	2.004914839626746e-10,	6.280744e-10,	1.2721583086079407e-11
69.0,	69.02132,	0.000627482995526917,	7.49845e-08,	2.0589612608840923e-10,	6.415949e-10,	1.0892657979145199e-11
70.0,	70.02368,	0.0004439472508314239,	7.559761e-08,	8.875636588427156e-11,	6.39399e-10,	1.142984900805125e-11
71.0,	71.02718,	0.0005010785120793511,	7.636184e-08,	1.409554476561551e-10,	6.451243e-10,	1.1067319937199174e-11
72.0,	72.02748,	0.00024162648421534292,	7.723676e-08,	7.217272166518563e-11,	6.458312e-10,	1.2184461005591962e-11
73.0,	73.01237,	0.00027122598248759437,	7.806111e-08,	1.8413682104587483e-10,	6.51566e-10,	1.088581151054329e-11
74.0,	74.01411,	0.00024355421344394494,	7.878118e-08,	8.73267216583064e-11,	6.643658e-10,	1.2505533866359701e-11
75.0,	75.01687,	0.00026498883711806054,	7.999383e-08,	1.692825168704446e-10,	6.638067e-10,	1.1170906150018062e-11
76.0,	76.01855,	0.00026363724294521516,	8.057474e-08,	1.9850036532178749e-10,	6.79628e-10,	1.2671413255621967e-11
77.0,	77.02009,	0.00039852349065949894,	8.139398e-08,	1.8286161539542553e-10,	6.804309e-10,	1.260796598831973e-11
78.0,	78.02329,	0.000445594031933808,	8.227052e-08,	1.3253983764496073e-10,	6.827363e-10,	1.1552723565916485e-11
79.0,	79.02364,	0.0003068430123527766,	8.312528e-08,	1.380107249360271e-10,	7.032728e-10,	1.4277329577420924e-11
80.0,	80.02629,	0.000573874777525633,	8.462691e-08,	1.354037306960721e-10,	7.032613e-10,	1.057029380966344e-11
81.0,	81.02758,	0.00014999729660097468,	8.561581e-08,	1.0151237397575391e-10,	7.069471e-10,	1.3611106240443249e-11
82.0,	82.0108,	0.00026727220460611144,	8.632756e-08,	1.0494313140223462e-10,	7.180256e-10,	1.3264916815021693e-11
83.0,	83.01247,	0.0005158976100213145,	8.746143e-08,	1.3650130179690186e-10,	7.192172e-10,	1.1369430202275445e-11
84.0,	84.01275,	0.00044715245503181857,	8.908646e-08,	1.190771065502206e-10,	7.316923e-10,	1.3599732582346429e-11
85.0,	85.01672,	0.0002361899861312342,	9.025634e-08,	1.474363495739169e-10,	7.34547e-10,	1.226349075835001e-11
86.0,	86.01825,	0.0005040807469150479,	9.134443e-08,	2.1087847455402387e-10,	7.389104e-10,	1.2896685134721006e-11
87.0,	87.01828,	0.0004881484458408968,	9.251181e-08,	1.3097063586090957e-10,	7.470699e-10,	1.348111851902284e-11
88.0,	88.02035,	0.00021348637198256463,	9.419311e-08,	1.5390965113868523e-10,	7.583286e-10,	1.470234532944025e-11
89.0,	89.02169,	0.00021107196455234792,	9.558391e-08,	1.423920931159713e-10,	7.535183e-10,	1.3844569022726645e-11
90.0,	90.02538,	0.000309945661294504,	9.696045e-08,	3.584585925647969e-11,	7.683955e-10,	1.3264064571191511e-11
100.0,	100.0251,	0.000595441996253751,	1.18814e-07,	6.349809847062042e-10,	2.105099e-09,	1.2412669006019828e-10
110.0,	110.0034,	0.00041144497096616827,	1.602068e-07,	3.906892130494214e-10,	2.314279e-09,	1.1178812953580644e-11
120.0,	119.9969,	0.000346034044563967,	2.481768e-07,	3.46821251532186e-10,	2.439066e-09,	1.0446736044578304e-11
130.0,	129.9963,	0.00023090542505917788,	4.100205e-07,	7.755386991331939e-10,	2.557375e-09,	1.1440018726292728e-11
140.0,	139.9812,	0.002715203601993216,	6.881536e-07,	1.1796538534410773e-08,	2.676322e-09,	1.9600615135546095e-11
150.0,	149.9873,	0.00043725090385028626,	1.103512e-06,	2.4320120756679893e-09,	2.795049e-09,	3.0171300005536267e-11
160.0,	159.9922,	0.0004702851505305559,	1.685548e-06,	2.464611790451807e-09,	2.9192e-09,	1.3341011958296841e-11
170.0,	169.9992,	0.0003899398471974378,	2.385432e-06,	2.8016866335548634e-09,	3.038797e-09,	1.5889086370274e-11
180.0,	180.0052,	0.0005657591461970108,	3.239462e-06,	3.4150553413379894e-09,	3.178804e-09,	1.8793119627888438e-11
190.0,	190.0054,	0.00048029434783561316,	4.189942e-06,	3.0790971982074332e-09,	3.31382e-09,	4.616839652645773e-10
200.0,	198.328,	0.02161797124902328,	5.000093e-06,	2.906206670120112e-11,	8.781734e-10,	4.846868326002683e-10
END